############################
### DOCUMENT
# [1] D. SIEGFRIED and P. WILBUR, “An investigation of mercury hollow cathode phenomena,” 13th Int. Electr. Propuls. Conf., 1978.
### SOFTWARE
# Plot digitized using Engauge Digitizer
### CAPTION
# Electron temperature in spot mode 
### DATA
# d (mm), Te (eV)
############################
d,TeV
0.2011,0.75093
0.2055,0.7508
0.2098,0.75066
0.2142,0.75053
0.2185,0.7504
0.2228,0.75027
0.2272,0.75013
0.2315,0.75
0.2359,0.74986
0.2402,0.74973
0.2446,0.74959
0.2489,0.74946
0.2533,0.74932
0.2576,0.74918
0.262,0.74904
0.2663,0.7489
0.2707,0.74876
0.275,0.74862
0.2794,0.74848
0.2837,0.74833
0.2881,0.74819
0.2924,0.74804
0.2968,0.74789
0.3011,0.74774
0.3055,0.74759
0.3098,0.74744
0.3141,0.74728
0.3185,0.74712
0.3228,0.74696
0.3272,0.7468
0.3315,0.74663
0.3359,0.74646
0.3402,0.74629
0.3446,0.74611
0.3489,0.74593
0.3533,0.74575
0.3576,0.74556
0.362,0.74536
0.3663,0.74517
0.3707,0.74496
0.375,0.74475
0.3794,0.74453
0.3837,0.7443
0.3881,0.74407
0.3924,0.74382
0.3968,0.74356
0.4011,0.74329
0.4055,0.743
0.4098,0.7427
0.4141,0.74237
0.4185,0.74201
0.4228,0.74161
0.4272,0.74118
0.4315,0.74071
0.4359,0.74021
0.4402,0.7397
0.4446,0.73919
0.4489,0.73871
0.4533,0.73826
0.4576,0.73785
0.462,0.73747
0.4663,0.73714
0.4707,0.73683
0.475,0.73655
0.4794,0.7363
0.4837,0.73607
0.4881,0.73586
0.4924,0.73566
0.4968,0.73548
0.5011,0.73532
0.5055,0.73516
0.5098,0.73502
0.5141,0.73488
0.5185,0.73476
0.5228,0.73464
0.5272,0.73453
0.5315,0.73442
0.5359,0.73433
0.5402,0.73423
0.5446,0.73415
0.5489,0.73407
0.5533,0.73399
0.5576,0.73392
0.562,0.73385
0.5663,0.73378
0.5707,0.73372
0.575,0.73366
0.5794,0.73361
0.5837,0.73355
0.5881,0.7335
0.5924,0.73346
0.5968,0.73341
0.6011,0.73337
0.6055,0.73333
0.6098,0.7333
0.6141,0.73326
0.6185,0.73323
0.6228,0.7332
0.6272,0.73317
0.6315,0.73314
0.6359,0.73311
0.6402,0.73309
0.6446,0.73307
0.6489,0.73305
0.6533,0.73303
0.6576,0.73301
0.662,0.73299
0.6663,0.73297
0.6707,0.73296
0.675,0.73294
0.6794,0.73293
0.6837,0.73292
0.6881,0.73291
0.6924,0.7329
0.6968,0.73289
0.7011,0.73288
0.7055,0.73287
0.7098,0.73286
0.7141,0.73285
0.7185,0.73285
0.7228,0.73284
0.7272,0.73284
0.7315,0.73283
0.7359,0.73283
0.7402,0.73283
0.7446,0.73282
0.7489,0.73282
0.7533,0.73282
0.7576,0.73282
0.762,0.73281
0.7663,0.73281
0.7707,0.73281
0.775,0.73281
0.7794,0.73281
0.7837,0.73281
0.7881,0.73282
0.7924,0.73282
0.7968,0.73282
0.8011,0.73282
0.8055,0.73282
0.8098,0.73282
0.8141,0.73283
0.8185,0.73283
0.8228,0.73283
0.8272,0.73284
0.8315,0.73284
0.8359,0.73284
0.8402,0.73285
0.8446,0.73285
0.8489,0.73286
0.8533,0.73286
0.8576,0.73287
0.862,0.73287
0.8663,0.73288
0.8707,0.73288
0.875,0.73289
0.8794,0.73289
0.8837,0.7329
0.8881,0.7329
0.8924,0.73291
0.8968,0.73291
0.9011,0.73292
0.9054,0.73293
0.9098,0.73293
0.9141,0.73294
0.9185,0.73295
0.9228,0.73295
0.9272,0.73296
0.9315,0.73296
0.9359,0.73297
0.9402,0.73298
0.9446,0.73298
0.9489,0.73299
0.9533,0.733
0.9576,0.733
0.962,0.73301
0.9663,0.73302
0.9707,0.73302
0.975,0.73303
0.9794,0.73304
0.9837,0.73304
0.9881,0.73305
0.9924,0.73306
0.9968,0.73306
1.0011,0.73307
1.0054,0.73308
1.0098,0.73308
1.0141,0.73309
1.0185,0.73309
1.0228,0.7331
1.0272,0.73311
1.0315,0.73311
1.0359,0.73312
1.0402,0.73312
1.0446,0.73313
1.0489,0.73313
1.0533,0.73314
1.0576,0.73315
1.062,0.73315
1.0663,0.73316
1.0707,0.73316
1.075,0.73317
1.0794,0.73317
1.0837,0.73317
1.0881,0.73318
1.0924,0.73318
1.0968,0.73319
1.1011,0.73319
1.1054,0.73319
1.1098,0.7332
1.1141,0.7332
1.1185,0.7332
1.1228,0.73321
1.1272,0.73321
1.1315,0.73321
1.1359,0.73321
1.1402,0.73321
1.1446,0.73322
1.1489,0.73322
1.1533,0.73322
1.1576,0.73322
1.162,0.73322
1.1663,0.73322
1.1707,0.73322
1.175,0.73322
1.1794,0.73322
1.1837,0.73322
1.1881,0.73321
1.1924,0.73321
1.1968,0.73321
1.2011,0.73321
1.2054,0.7332
1.2098,0.7332
1.2141,0.7332
1.2185,0.73319
1.2228,0.73319
1.2272,0.73318
1.2315,0.73317
1.2359,0.73317
1.2402,0.73316
1.2446,0.73315
1.2489,0.73315
1.2533,0.73314
1.2576,0.73313
1.262,0.73312
1.2663,0.73311
1.2707,0.73309
1.275,0.73308
1.2794,0.73307
1.2837,0.73306
1.2881,0.73304
1.2924,0.73303
1.2968,0.73301
1.3011,0.73299
1.3054,0.73298
1.3098,0.73296
1.3141,0.73294
1.3185,0.73292
1.3228,0.73289
1.3272,0.73287
1.3315,0.73285
1.3359,0.73282
1.3402,0.73279
1.3446,0.73277
1.3489,0.73274
1.3533,0.7327
1.3576,0.73267
1.362,0.73264
1.3663,0.7326
1.3707,0.73256
1.375,0.73252
1.3794,0.73248
1.3837,0.73243
1.3881,0.73238
1.3924,0.73234
1.3967,0.73228
1.4011,0.73223
1.4054,0.73217
1.4098,0.73211
1.4141,0.73205
1.4185,0.73198
1.4228,0.73191
1.4272,0.73184
1.4315,0.73176
1.4359,0.73168
1.4402,0.73159
1.4446,0.7315
1.4489,0.73141
1.4533,0.73131
1.4576,0.73121
1.462,0.7311
1.4663,0.73099
1.4707,0.73087
1.475,0.73074
1.4794,0.73061
1.4837,0.73047
1.4881,0.73032
1.4924,0.73017
1.4967,0.73
1.5011,0.72983
1.5054,0.72964
1.5098,0.72944
1.5141,0.72923
1.5185,0.72901
1.5228,0.72877
1.5272,0.72851
1.5315,0.72824
1.5359,0.72795
1.5402,0.72763
1.5446,0.72729
1.5489,0.72692
1.5533,0.72654
1.5576,0.72613
1.562,0.72571
1.5663,0.7253
1.5707,0.7249
1.575,0.72454
1.5794,0.72423
1.5837,0.72397
1.5881,0.72376
1.5924,0.7236
1.5967,0.72347
1.6011,0.72338
1.6054,0.7233
1.6098,0.72325
1.6141,0.72321
1.6185,0.72319
1.6228,0.72317
1.6272,0.72317
1.6315,0.72317
1.6359,0.72318
1.6402,0.72319
1.6446,0.72321
1.6489,0.72323
1.6533,0.72326
1.6576,0.72329
1.662,0.72332
1.6663,0.72335
1.6707,0.72339
1.675,0.72342
1.6794,0.72346
1.6837,0.7235
1.6881,0.72353
1.6924,0.72357
1.6967,0.7236
1.7011,0.72364
1.7054,0.72367
1.7098,0.7237
1.7141,0.72373
1.7185,0.72376
1.7228,0.72378
1.7272,0.72381
1.7315,0.72383
1.7359,0.72384
1.7402,0.72386
1.7446,0.72387
1.7489,0.72387
1.7533,0.72388
1.7576,0.72388
1.762,0.72387
1.7663,0.72386
1.7707,0.72385
1.775,0.72383
1.7794,0.7238
1.7837,0.72377
1.7881,0.72373
1.7924,0.72369
1.7967,0.72363
1.8011,0.72357
1.8054,0.72351
1.8098,0.72343
1.8141,0.72335
1.8185,0.72325
1.8228,0.72315
1.8272,0.72304
1.8315,0.72293
1.8359,0.7228
1.8402,0.72267
1.8446,0.72253
1.8489,0.72238
1.8533,0.72222
1.8576,0.72206
1.862,0.72189
1.8663,0.72172
1.8707,0.72154
1.875,0.72135
1.8794,0.72116
1.8837,0.72096
1.8881,0.72076
1.8924,0.72056
1.8967,0.72035
1.9011,0.72014
1.9054,0.71992
1.9098,0.7197
1.9141,0.71948
1.9185,0.71926
1.9228,0.71904
1.9272,0.71881
1.9315,0.71859
1.9359,0.71836
1.9402,0.71814
1.9446,0.71792
1.9489,0.7177
1.9533,0.71748
1.9576,0.71726
1.962,0.71705
1.9663,0.71684
1.9707,0.71663
1.975,0.71643
1.9794,0.71623
1.9837,0.71604
1.988,0.71585
1.9924,0.71567
1.9967,0.7155
2.0011,0.71533
2.0054,0.71518
2.0098,0.71503
2.0141,0.71489
2.0185,0.71475
2.0228,0.71463
2.0272,0.71452
2.0315,0.71441
2.0359,0.71432
2.0402,0.71423
2.0446,0.71415
2.0489,0.71408
2.0533,0.71402
2.0576,0.71397
2.062,0.71392
2.0663,0.71388
2.0707,0.71385
2.075,0.71382
2.0794,0.7138
2.0837,0.71378
2.088,0.71377
2.0924,0.71376
2.0967,0.71376
2.1011,0.71376
2.1054,0.71377
2.1098,0.71378
2.1141,0.71379
2.1185,0.71381
2.1228,0.71383
2.1272,0.71385
2.1315,0.71387
2.1359,0.7139
2.1402,0.71393
2.1446,0.71395
2.1489,0.71399
2.1533,0.71402
2.1576,0.71405
2.162,0.71408
2.1663,0.71411
2.1707,0.71415
2.175,0.71418
2.1794,0.71421
2.1837,0.71424
2.188,0.71427
2.1924,0.71429
2.1967,0.71432
2.2011,0.71434
2.2054,0.71436
2.2098,0.71437
2.2141,0.71439
2.2185,0.7144
2.2228,0.7144
2.2272,0.7144
2.2315,0.7144
2.2359,0.71439
2.2402,0.71438
2.2446,0.71436
2.2489,0.71433
2.2533,0.7143
2.2576,0.71426
2.262,0.71421
2.2663,0.71416
2.2707,0.7141
2.275,0.71403
2.2794,0.71395
2.2837,0.71387
2.288,0.71378
2.2924,0.71368
2.2967,0.71357
2.3011,0.71346
2.3054,0.71333
2.3098,0.7132
2.3141,0.71305
2.3185,0.7129
2.3228,0.71274
2.3272,0.71256
2.3315,0.71238
2.3359,0.71218
2.3402,0.71197
2.3446,0.71175
2.3489,0.71152
2.3533,0.71128
2.3576,0.71102
2.362,0.71074
2.3663,0.71045
2.3707,0.71014
2.375,0.70982
2.3794,0.70948
2.3837,0.70912
2.388,0.70873
2.3924,0.70833
2.3967,0.70791
2.4011,0.70745
2.4054,0.70698
2.4098,0.70647
2.4141,0.70593
2.4185,0.70536
2.4228,0.70475
2.4272,0.70411
2.4315,0.70344
2.4359,0.70276
2.4402,0.70206
2.4446,0.70137
2.4489,0.70068
2.4533,0.7
2.4576,0.69934
2.462,0.69871
2.4663,0.69809
2.4707,0.69751
2.475,0.69695
2.4793,0.69642
2.4837,0.69591
2.488,0.69543
2.4924,0.69497
2.4967,0.69454
2.5011,0.69413
2.5054,0.69374
2.5098,0.69337
2.5141,0.69302
2.5185,0.69268
2.5228,0.69237
2.5272,0.69206
2.5315,0.69178
2.5359,0.6915
2.5402,0.69124
2.5446,0.69099
2.5489,0.69076
2.5533,0.69053
2.5576,0.69032
2.562,0.69012
2.5663,0.68992
2.5707,0.68974
2.575,0.68956
2.5793,0.68939
2.5837,0.68923
2.588,0.68908
2.5924,0.68893
2.5967,0.68879
2.6011,0.68866
2.6054,0.68854
2.6098,0.68842
2.6141,0.68831
2.6185,0.6882
2.6228,0.6881
2.6272,0.688
2.6315,0.68791
2.6359,0.68782
2.6402,0.68774
2.6446,0.68766
2.6489,0.68759
2.6533,0.68752
2.6576,0.68745
2.662,0.68739
2.6663,0.68733
2.6707,0.68728
2.675,0.68722
2.6793,0.68717
2.6837,0.68713
2.688,0.68708
2.6924,0.68704
2.6967,0.687
2.7011,0.68696
2.7054,0.68693
2.7098,0.68689
2.7141,0.68686
2.7185,0.68683
2.7228,0.68681
2.7272,0.68678
2.7315,0.68676
2.7359,0.68674
2.7402,0.68671
2.7446,0.6867
2.7489,0.68668
2.7533,0.68666
2.7576,0.68665
2.762,0.68663
2.7663,0.68662
2.7707,0.68661
2.775,0.6866
2.7793,0.68659
2.7837,0.68658
2.788,0.68658
2.7924,0.68657
2.7967,0.68657
2.8011,0.68656
2.8054,0.68656
2.8098,0.68656
2.8141,0.68656
2.8185,0.68656
2.8228,0.68656
2.8272,0.68656
2.8315,0.68657
2.8359,0.68657
2.8402,0.68657
2.8446,0.68658
2.8489,0.68658
2.8533,0.68659
2.8576,0.6866
2.862,0.6866
2.8663,0.68661
2.8707,0.68662
2.875,0.68663
2.8793,0.68664
2.8837,0.68665
2.888,0.68666
2.8924,0.68667
2.8967,0.68668
2.9011,0.68669
2.9054,0.68671
2.9098,0.68672
2.9141,0.68673
2.9185,0.68674
2.9228,0.68676
2.9272,0.68677
2.9315,0.68679
2.9359,0.6868
2.9402,0.68682
2.9446,0.68683
2.9489,0.68685
2.9533,0.68686
2.9576,0.68688
2.962,0.68689
2.9663,0.68691
2.9707,0.68693
2.975,0.68694
2.9793,0.68696
2.9837,0.68698
2.988,0.68699
2.9924,0.68701
2.9967,0.68703
3.0011,0.68704
3.0054,0.68706
3.0098,0.68708
3.0141,0.68709
3.0185,0.68711
3.0228,0.68713
3.0272,0.68714
3.0315,0.68716
3.0359,0.68718
3.0402,0.68719
3.0446,0.68721
3.0489,0.68722
3.0533,0.68724
3.0576,0.68726
3.062,0.68727
3.0663,0.68729
3.0706,0.6873
3.075,0.68731
3.0793,0.68733
3.0837,0.68734
3.088,0.68735
3.0924,0.68737
3.0967,0.68738
3.1011,0.68739
3.1054,0.6874
3.1098,0.68741
3.1141,0.68742
3.1185,0.68743
3.1228,0.68744
3.1272,0.68745
3.1315,0.68745
3.1359,0.68746
3.1402,0.68746
3.1446,0.68747
3.1489,0.68747
3.1533,0.68747
3.1576,0.68747
3.162,0.68747
3.1663,0.68747
3.1706,0.68746
3.175,0.68746
3.1793,0.68745
3.1837,0.68744
3.188,0.68743
3.1924,0.68742
3.1967,0.68741
3.2011,0.68739
3.2054,0.68737
3.2098,0.68735
3.2141,0.68732
3.2185,0.68729
3.2228,0.68726
3.2272,0.68723
3.2315,0.68719
3.2359,0.68715
3.2402,0.68711
3.2446,0.68706
3.2489,0.68701
3.2533,0.68695
3.2576,0.68689
3.262,0.68683
3.2663,0.68676
3.2706,0.68668
3.275,0.6866
3.2793,0.68651
3.2837,0.68642
3.288,0.68632
3.2924,0.68622
3.2967,0.6861
3.3011,0.68598
3.3054,0.68585
3.3098,0.68571
3.3141,0.68556
3.3185,0.6854
3.3228,0.68523
3.3272,0.68505
3.3315,0.68485
3.3359,0.68464
3.3402,0.68442
3.3446,0.68418
3.3489,0.68393
3.3533,0.68365
3.3576,0.68337
3.362,0.68306
3.3663,0.68274
3.3706,0.68241
3.375,0.68206
3.3793,0.68169
3.3837,0.68132
3.388,0.68094
3.3924,0.68056
3.3967,0.68018
3.4011,0.6798
3.4054,0.67943
3.4098,0.67906
3.4141,0.67871
3.4185,0.67837
3.4228,0.67804
3.4272,0.67772
3.4315,0.67741
3.4359,0.67711
3.4402,0.67682
3.4446,0.67654
3.4489,0.67626
3.4533,0.676
3.4576,0.67573
3.462,0.67548
3.4663,0.67523
3.4706,0.67499
3.475,0.67476
3.4793,0.67453
3.4837,0.6743
3.488,0.67408
3.4924,0.67387
3.4967,0.67366
3.5011,0.67346
3.5054,0.67326
3.5098,0.67306
3.5141,0.67287
3.5185,0.67269
3.5228,0.67251
3.5272,0.67234
3.5315,0.67217
3.5359,0.672
3.5402,0.67184
3.5446,0.67169
3.5489,0.67154
3.5533,0.67139
3.5576,0.67125
3.562,0.67111
3.5663,0.67098
3.5706,0.67085
3.575,0.67073
3.5793,0.67061
3.5837,0.6705
3.588,0.67039
3.5924,0.67029
3.5967,0.67019
3.6011,0.6701
3.6054,0.67002
3.6098,0.66993
3.6141,0.66986
3.6185,0.66979
3.6228,0.66972
3.6272,0.66966
3.6315,0.66961
3.6359,0.66956
3.6402,0.66952
3.6446,0.66948
3.6489,0.66945
3.6533,0.66943
3.6576,0.66941
3.6619,0.6694
3.6663,0.66939
3.6706,0.66938
3.675,0.66938
3.6793,0.66938
3.6837,0.66939
3.688,0.6694
3.6924,0.66941
3.6967,0.66943
3.7011,0.66945
3.7054,0.66947
3.7098,0.66949
3.7141,0.66952
3.7185,0.66955
3.7228,0.66958
3.7272,0.66961
3.7315,0.66964
3.7359,0.66967
3.7402,0.6697
3.7446,0.66973
3.7489,0.66976
3.7533,0.6698
3.7576,0.66982
3.7619,0.66985
3.7663,0.66988
3.7706,0.6699
3.775,0.66992
3.7793,0.66994
3.7837,0.66996
3.788,0.66997
3.7924,0.66997
3.7967,0.66998
3.8011,0.66997
3.8054,0.66997
3.8098,0.66995
3.8141,0.66993
3.8185,0.6699
3.8228,0.66987
3.8272,0.66982
3.8315,0.66977
3.8359,0.66971
3.8402,0.66964
3.8446,0.66956
3.8489,0.66947
3.8533,0.66936
3.8576,0.66925
3.8619,0.66912
3.8663,0.66898
3.8706,0.66883
3.875,0.66867
3.8793,0.6685
3.8837,0.66832
3.888,0.66813
3.8924,0.66793
3.8967,0.66772
3.9011,0.6675
3.9054,0.66728
3.9098,0.66705
3.9141,0.66681
3.9185,0.66656
3.9228,0.66631
3.9272,0.66606
3.9315,0.6658
3.9359,0.66554
3.9402,0.66527
3.9446,0.665
3.9489,0.66473
3.9533,0.66446
3.9576,0.66418
3.9619,0.66391
3.9663,0.66364
3.9706,0.66337
3.975,0.66311
3.9793,0.66284
3.9837,0.66259
3.988,0.66233
3.9924,0.66209
3.9967,0.66185
4.0011,0.66162
4.0054,0.6614
4.0098,0.66118
4.0141,0.66098
4.0185,0.6608
4.0228,0.66062
4.0272,0.66046
4.0315,0.66032
4.0359,0.66019
4.0402,0.66007
4.0446,0.65997
4.0489,0.65988
4.0533,0.65981
4.0576,0.65974
4.0619,0.65969
4.0663,0.65965
4.0706,0.65962
4.075,0.6596
4.0793,0.65959
4.0837,0.65958
4.088,0.65959
4.0924,0.6596
4.0967,0.65961
4.1011,0.65963
4.1054,0.65966
4.1098,0.65969
4.1141,0.65972
4.1185,0.65976
4.1228,0.6598
4.1272,0.65984
4.1315,0.65988
4.1359,0.65992
4.1402,0.65996
4.1446,0.66001
4.1489,0.66005
4.1532,0.66009
4.1576,0.66013
4.1619,0.66017
4.1663,0.6602
4.1706,0.66024
4.175,0.66027
4.1793,0.6603
4.1837,0.66032
4.188,0.66035
4.1924,0.66037
4.1967,0.66039
4.2011,0.6604
4.2054,0.66041
4.2098,0.66042
4.2141,0.66042
4.2185,0.66043
4.2228,0.66043
4.2272,0.66043
4.2315,0.66042
4.2359,0.66042
4.2402,0.66041
4.2446,0.6604
4.2489,0.66039
4.2532,0.66038
4.2576,0.66037
4.2619,0.66036
4.2663,0.66034
4.2706,0.66033
4.275,0.66031
4.2793,0.66029
4.2837,0.66028
4.288,0.66026
4.2924,0.66024
4.2967,0.66023
4.3011,0.66021
4.3054,0.66019
4.3098,0.66017
4.3141,0.66015
4.3185,0.66014
4.3228,0.66012
4.3272,0.6601
4.3315,0.66009
4.3359,0.66007
4.3402,0.66006
4.3446,0.66005
4.3489,0.66003
4.3532,0.66002
4.3576,0.66001
4.3619,0.66001
4.3663,0.66
4.3706,0.66
4.375,0.66
4.3793,0.66
4.3837,0.66001
4.388,0.66002
4.3924,0.66003
4.3967,0.66005
4.4011,0.66007
4.4054,0.6601
4.4098,0.66014
4.4141,0.66019
4.4185,0.66025
4.4228,0.66032
4.4272,0.6604
4.4315,0.6605
4.4359,0.66061
4.4402,0.66072
4.4446,0.66084
4.4489,0.66096
4.4532,0.66108
4.4576,0.66119
4.4619,0.66129
4.4663,0.66138
4.4706,0.66146
4.475,0.66153
4.4793,0.66158
4.4837,0.66163
4.488,0.66166
4.4924,0.66168
4.4967,0.6617
4.5011,0.66171
4.5054,0.66171
4.5098,0.6617
4.5141,0.66169
4.5185,0.66167
4.5228,0.66165
4.5272,0.66162
4.5315,0.66158
4.5359,0.66155
4.5402,0.66151
4.5446,0.66146
4.5489,0.66142
4.5532,0.66137
4.5576,0.66131
4.5619,0.66126
4.5663,0.6612
4.5706,0.66114
4.575,0.66107
4.5793,0.66101
4.5837,0.66094
4.588,0.66087
4.5924,0.6608
4.5967,0.66073
4.6011,0.66065
4.6054,0.66058
4.6098,0.6605
4.6141,0.66042
4.6185,0.66034
4.6228,0.66026
4.6272,0.66018
4.6315,0.66009
4.6359,0.66001
4.6402,0.65992
4.6446,0.65983
4.6489,0.65975
4.6532,0.65966
4.6576,0.65957
4.6619,0.65948
4.6663,0.65938
4.6706,0.65929
4.675,0.6592
4.6793,0.65911
4.6837,0.65901
4.688,0.65892
4.6924,0.65882
4.6967,0.65872
4.7011,0.65863
4.7054,0.65853
4.7098,0.65843
4.7141,0.65833
4.7185,0.65823
4.7228,0.65813
4.7272,0.65803
4.7315,0.65793
4.7359,0.65783
4.7402,0.65773
4.7445,0.65763
4.7489,0.65752
4.7532,0.65742
4.7576,0.65732
4.7619,0.65721
4.7663,0.65711
4.7706,0.657
4.775,0.6569
4.7793,0.65679
4.7837,0.65669
4.788,0.65658
4.7924,0.65648
4.7967,0.65637
4.8011,0.65626
4.8054,0.65615
4.8098,0.65605
4.8141,0.65594
4.8185,0.65583
4.8228,0.65572
4.8272,0.65561
4.8315,0.6555
4.8359,0.65539
4.8402,0.65528
4.8445,0.65517
4.8489,0.65506
4.8532,0.65495
4.8576,0.65484
4.8619,0.65472
4.8663,0.65461
4.8706,0.6545
4.875,0.65439
4.8793,0.65427
4.8837,0.65416
4.888,0.65405
4.8924,0.65393
4.8967,0.65382
4.9011,0.6537
4.9054,0.65359
4.9098,0.65347
4.9141,0.65336
4.9185,0.65324
4.9228,0.65312
4.9272,0.65301
4.9315,0.65289
4.9359,0.65277
4.9402,0.65266
4.9445,0.65254
4.9489,0.65242
4.9532,0.6523
4.9576,0.65218
4.9619,0.65207
4.9663,0.65195
4.9706,0.65183
4.975,0.65171
4.9793,0.65159
4.9837,0.65147
4.988,0.65135
4.9924,0.65122
4.9967,0.6511
5.0011,0.65098
5.0054,0.65086
5.0098,0.65074
5.0141,0.65062
5.0185,0.65049
5.0228,0.65037
5.0272,0.65025
5.0315,0.65012
5.0359,0.65
5.0402,0.64987
5.0445,0.64975
5.0489,0.64962
5.0532,0.6495
5.0576,0.64937
5.0619,0.64925
5.0663,0.64912
5.0706,0.64899
5.075,0.64887
5.0793,0.64874
5.0837,0.64861
5.088,0.64848
5.0924,0.64835
5.0967,0.64822
5.1011,0.64809
5.1054,0.64796
5.1098,0.64783
5.1141,0.6477
5.1185,0.64757
5.1228,0.64744
5.1272,0.64731
5.1315,0.64718
5.1359,0.64704
5.1402,0.64691
5.1445,0.64678
5.1489,0.64664
5.1532,0.64651
5.1576,0.64637
5.1619,0.64624
5.1663,0.6461
5.1706,0.64596
5.175,0.64582
5.1793,0.64569
5.1837,0.64555
5.188,0.64541
5.1924,0.64527
5.1967,0.64513
5.2011,0.64499
5.2054,0.64484
5.2098,0.6447
5.2141,0.64456
5.2185,0.64441
5.2228,0.64427
5.2272,0.64412
5.2315,0.64398
5.2358,0.64383
5.2402,0.64368
5.2445,0.64353
5.2489,0.64338
5.2532,0.64323
5.2576,0.64308
5.2619,0.64292
5.2663,0.64277
5.2706,0.64261
5.275,0.64245
5.2793,0.64229
5.2837,0.64213
5.288,0.64197
5.2924,0.6418
5.2967,0.64164
5.3011,0.64147
5.3054,0.6413
5.3098,0.64113
5.3141,0.64095
5.3185,0.64077
5.3228,0.64059
5.3272,0.64041
5.3315,0.64022
5.3358,0.64003
5.3402,0.63984
5.3445,0.63965
5.3489,0.63945
5.3532,0.63924
5.3576,0.63904
5.3619,0.63882
5.3663,0.63861
5.3706,0.63838
5.375,0.63816
5.3793,0.63792
5.3837,0.63768
5.388,0.63743
5.3924,0.63718
5.3967,0.63691
5.4011,0.63663
5.4054,0.63635
5.4098,0.63605
5.4141,0.63573
5.4185,0.6354
5.4228,0.63506
5.4272,0.63471
5.4315,0.63436
5.4358,0.63404
5.4402,0.63375
5.4445,0.63353
5.4489,0.63338
5.4532,0.63327
5.4576,0.6332
5.4619,0.63316
5.4663,0.63314
5.4706,0.63314
5.475,0.63314
5.4793,0.63315
5.4837,0.63317
5.488,0.63319
5.4924,0.63321
5.4967,0.63324
5.5011,0.63327
5.5054,0.6333
5.5098,0.63333
5.5141,0.63336
5.5185,0.6334
5.5228,0.63343
5.5272,0.63346
5.5315,0.63349
5.5358,0.63352
5.5402,0.63355
5.5445,0.63358
5.5489,0.63361
5.5532,0.63363
5.5576,0.63365
5.5619,0.63368
5.5663,0.6337
5.5706,0.63371
5.575,0.63373
5.5793,0.63374
5.5837,0.63375
5.588,0.63376
5.5924,0.63376
5.5967,0.63376
5.6011,0.63376
5.6054,0.63376
5.6098,0.63375
5.6141,0.63374
5.6185,0.63372
5.6228,0.6337
5.6272,0.63367
5.6315,0.63364
5.6358,0.63361
5.6402,0.63357
5.6445,0.63353
5.6489,0.63348
5.6532,0.63342
5.6576,0.63336
5.6619,0.63329
5.6663,0.63322
5.6706,0.63314
5.675,0.63305
5.6793,0.63295
5.6837,0.63285
5.688,0.63274
5.6924,0.63262
5.6967,0.63249
5.7011,0.63236
5.7054,0.63222
5.7098,0.63207
5.7141,0.63191
5.7185,0.63175
5.7228,0.63158
5.7272,0.63141
5.7315,0.63123
5.7358,0.63104
5.7402,0.63085
5.7445,0.63066
5.7489,0.63046
5.7532,0.63026
5.7576,0.63005
5.7619,0.62984
5.7663,0.62962
5.7706,0.62941
5.775,0.62919
5.7793,0.62897
5.7837,0.62874
5.788,0.62852
5.7924,0.6283
5.7967,0.62808
5.8011,0.62785
5.8054,0.62763
5.8098,0.62741
5.8141,0.62719
5.8185,0.62698
5.8228,0.62677
5.8271,0.62656
5.8315,0.62635
5.8358,0.62615
5.8402,0.62595
5.8445,0.62576
5.8489,0.62558
5.8532,0.6254
5.8576,0.62523
5.8619,0.62506
5.8663,0.62491
5.8706,0.62476
5.875,0.62462
5.8793,0.62448
5.8837,0.62436
5.888,0.62424
5.8924,0.62414
5.8967,0.62404
5.9011,0.62396
5.9054,0.62388
5.9098,0.62381
5.9141,0.62375
5.9185,0.6237
5.9228,0.62365
5.9271,0.62362
5.9315,0.62358
5.9358,0.62356
5.9402,0.62354
5.9445,0.62352
5.9489,0.62352
5.9532,0.62351
5.9576,0.62351
5.9619,0.62352
5.9663,0.62352
5.9706,0.62354
5.975,0.62355
5.9793,0.62357
